frame_id	time_stamp	track_id	x	y	v	angle	mea_x	mea_y
22	1.14	0	4.65651e-310	0	1.97626e-323	7.15524e-315	-3.02025	11.3895
23	1.15	0	-3.06926	11.697	19.1609	1.5169	-3.09817	11.7423
24	1.16	0	-2.9995	11.7441	19.1489	1.2905	-2.97028	11.7216
25	1.17	0	-2.9742	11.7629	19.1312	1.35736	-2.93264	11.5767
26	1.18	0	-2.97692	11.9959	19.1245	1.43948	-2.96633	11.9681
27	1.19	0	-3.05123	12.4556	19.1513	1.62699	-3.16792	12.7066
28	1.2	0	-3.08431	12.7094	19.1555	1.66388	-3.10394	12.7436
29	1.21	0	-3.0924	12.881	19.1379	1.64679	-3.10555	12.8982
30	1.22	0	-3.07057	12.8401	19.0783	1.55632	-3.04276	12.7527
31	1.23	0	-3.0971	13.2866	19.1173	1.62514	-3.14615	13.3876
33	1.25	0	-3.07738	13.4935	19.1007	1.55631	-2.9895	13.274
34	1.26	0	-3.11167	13.7992	19.1038	1.62858	-3.17138	13.8317
35	1.27	0	-3.10504	13.9406	19.0965	1.59364	-3.09471	13.9297
36	1.28	0	-3.10254	14.2571	19.1029	1.58012	-3.10401	14.2944
37	1.29	0	-3.11924	14.4414	19.0921	1.61815	-3.23963	14.6299
38	1.3	0	-3.13573	14.4701	19.0686	1.63897	-3.14348	14.4208
39	1.31	0	-3.09681	14.6687	19.0716	1.53633	-3.01822	14.6184
40	1.32	0	-3.1444	15.0402	19.088	1.63545	-3.22777	15.1388
41	1.33	0	-3.11303	14.9855	19.0722	1.56105	-3.06697	14.7811
42	1.34	0	-3.11173	15.4518	19.0988	1.55431	-3.09966	15.505
43	1.35	0	-3.10646	15.4684	19.0658	1.54977	-3.10429	15.4071
44	1.36	0	-3.14727	15.8154	19.0809	1.64909	-3.21129	15.908
45	1.37	0	-3.17254	16.0473	19.0791	1.6718	-3.24363	16.165
47	1.39	0	-3.1345	16.3028	19.0509	1.54427	-3.09697	16.2704
48	1.4	0	-3.14179	16.3398	19.0481	1.57056	-3.1322	16.2075
49	1.41	0	-3.1358	16.5835	19.0686	1.5544	-3.02894	16.2316
50	1.42	0	-3.16283	16.9161	19.0778	1.61538	-3.17996	16.9214
51	1.43	0	-3.1468	16.9941	19.0714	1.55654	-3.06908	16.7676
52	1.44	0	-3.17765	17.4136	19.0887	1.62861	-3.26195	17.6672
53	1.45	0	-3.17149	17.6691	19.0847	1.59462	-3.16438	17.719
53	1.45	1	4.65651e-310	0	9.88131e-324	1.5959	3.53825	24.5555
54	1.46	0	-3.19438	17.8929	19.0775	1.6404	-3.28434	18.1043
54	1.46	1	3.66072	25.8518	15.1772	1.70894	3.5328	24.799
55	1.47	0	-3.16586	17.8356	19.0494	1.55128	-3.09375	17.6364
55	1.47	1	3.70365	25.5074	15.1075	1.42368	3.76341	25.503
56	1.48	0	-3.21112	18.2578	19.0695	1.64574	-3.24224	18.2988
56	1.48	1	3.57879	25.6382	15.0803	1.89673	3.56155	25.7678
57	1.49	0	-3.18352	18.1687	19.0344	1.5593	-3.12555	17.8574
57	1.49	1	3.58077	25.6246	15.0486	1.78358	3.77591	25.6368
58	1.5	0	-3.18806	18.5672	19.0614	1.56604	-3.18029	18.5759
58	1.5	1	3.56622	26.0126	15.0688	1.75417	3.56654	26.0492
59	1.51	0	-3.18415	18.6778	19.0511	1.5591	-3.02876	18.1742
59	1.51	1	3.54575	26.054	15.0448	1.73982	3.78763	27.1476
60	1.52	1	3.4985	26.2308	15.0507	1.79374	3.42247	26.2964
60	1.52	0	-3.23016	18.9381	19.0459	1.66892	-3.31886	19.0203
61	1.53	1	3.4651	26.3689	15.0586	1.7945	3.41752	26.2813
61	1.53	0	-3.1726	18.9945	19.0435	1.53434	-3.11483	18.8802
62	1.54	1	3.53247	26.6814	15.05	1.56735	3.56832	26.6908
62	1.54	0	-3.20098	19.3602	19.0681	1.58927	-3.21806	19.422
63	1.55	1	3.51585	26.9024	15.0663	1.60438	3.41284	26.6385
63	1.55	0	-3.18413	19.4699	19.0593	1.55578	-3.01636	19.3406
64	1.56	1	3.53845	27.2168	15.0964	1.55951	3.54592	27.2566
64	1.56	0	-3.17311	19.5903	19.0632	1.54135	-3.18488	19.7165
65	1.57	1	3.54539	27.5595	15.1146	1.55271	3.62718	28.4116
65	1.57	0	-3.11285	19.5131	19.0516	1.44293	-3.02743	19.2175
66	1.58	1	3.60208	28.1657	15.1798	1.44523	3.6793	28.5222
66	1.58	0	-3.17434	20.025	19.0615	1.57277	-3.22579	20.1866
67	1.59	1	3.57073	28.0718	15.1226	1.54233	3.53431	27.9623
67	1.59	0	-3.23606	20.5132	19.0813	1.65219	-3.21884	20.3699
68	1.6	1	3.58167	28.5801	15.152	1.53937	3.60897	28.8476
68	1.6	0	-3.31794	20.8893	19.1004	1.74371	-3.35173	20.9569
69	1.61	0	-3.21636	20.846	19.0267	1.55544	-3.09168	20.794
69	1.61	1	3.54211	28.4994	15.1205	1.63252	3.47202	28.279
70	1.62	0	-3.24664	21.164	19.0339	1.59976	-3.31627	21.6062
70	1.62	1	3.58718	29.2154	15.1876	1.5437	3.62174	29.8834
71	1.63	0	-3.2537	21.3326	19.022	1.60727	-3.27274	21.394
71	1.63	1	3.56915	29.1971	15.1691	1.57966	3.5448	29.1807
72	1.64	0	-3.23846	21.3123	18.9826	1.56661	-3.23732	21.3048
72	1.64	1	3.55095	29.1914	15.1407	1.61823	3.53484	29.1317
73	1.65	0	-3.24208	21.5708	19.0013	1.57793	-3.24536	21.5866
73	1.65	1	3.54684	29.3529	15.155	1.61145	3.58131	29.66
74	1.66	0	-3.24554	21.8163	19.0069	1.58334	-3.38965	22.774
74	1.66	1	3.5353	29.5795	15.1736	1.62905	3.51114	29.5271
75	1.67	0	-3.27536	21.9551	19.0053	1.64663	-3.3709	21.7337
75	1.67	1	3.53106	29.6784	15.1844	1.61923	3.48925	29.2222
76	1.68	0	-3.24303	21.9631	18.9653	1.54644	-3.11664	21.0613
76	1.68	1	3.55344	30.2395	15.2333	1.56372	3.57336	30.4621
77	1.69	0	-3.22934	22.3335	18.9936	1.5271	-3.07794	22.1637
77	1.69	1	3.59284	30.7678	15.2702	1.48891	3.64789	31.0454
78	1.7	0	-3.26026	22.3476	18.9713	1.59294	-3.3113	22.2643
78	1.7	1	3.55999	30.8117	15.2388	1.5869	3.45266	30.8018
79	1.71	0	-3.27258	22.745	19.008	1.61076	-3.40908	22.973
79	1.71	1	3.58434	31.1813	15.2799	1.53393	3.6028	31.2789
80	1.72	0	-3.26446	22.9935	19.0077	1.58292	-3.37948	23.7676
80	1.72	1	3.5778	31.4316	15.2736	1.55755	3.60078	32.0231
81	1.73	0	-3.27588	23.2691	19.0064	1.60055	-3.33672	23.4756
81	1.73	1	3.57386	31.5743	15.2722	1.57035	3.57026	31.573
82	1.74	0	-3.25897	23.5423	19.0019	1.55754	-3.27191	23.9794
82	1.74	1	3.57922	31.8514	15.2926	1.55769	3.44032	30.7071
83	1.75	0	-3.25787	23.2757	18.9522	1.57627	-3.26834	23.1782
83	1.75	1	3.58643	32.113	15.3058	1.54619	3.58824	32.1345
84	1.76	0	-3.24584	23.6468	18.9769	1.5426	-3.31777	24.4903
84	1.76	1	3.56806	32.1161	15.3005	1.60115	3.50984	31.5734
85	1.77	0	-3.2528	23.8363	18.9743	1.57125	-3.26023	23.8365
85	1.77	1	3.56245	32.681	15.3461	1.6132	3.58492	32.7482
86	1.78	0	-3.24942	24.1416	18.9918	1.56277	-3.07509	24.2738
86	1.78	1	3.57292	32.8911	15.3495	1.56804	3.87041	33.754
87	1.79	0	-3.28313	24.3027	18.9889	1.63332	-3.40001	24.2691
87	1.79	1	3.57257	32.9578	15.3365	1.56847	3.5725	32.9412
88	1.8	0	-3.29271	24.666	19.0245	1.63077	-3.29228	24.7219
88	1.8	1	3.57023	33.5231	15.3779	1.57547	3.56924	33.3221
89	1.81	1	3.57768	33.5545	15.3643	1.55314	3.58418	33.529
89	1.81	0	-3.31662	24.7316	19.0116	1.65492	-3.29228	24.7219
90	1.82	1	3.5849	33.8903	15.3812	1.54003	3.58145	33.9187
90	1.82	0	-3.31203	25.1787	19.0324	1.61312	-3.34915	25.4858
91	1.83	1	3.57476	33.9862	15.3624	1.58321	3.55737	33.9693
91	1.83	0	-3.31599	25.3493	19.0188	1.60655	-3.2544	24.9447
92	1.84	1	3.57306	34.2456	15.3807	1.58224	3.57296	34.2688
92	1.84	0	-3.27726	25.5217	19.0087	1.52448	-3.28088	25.3712
93	1.85	1	3.6037	34.5641	15.4092	1.49698	3.68443	34.4925
93	1.85	0	-3.23153	25.3758	18.9717	1.46133	-3.15647	25.258
95	1.87	1	3.57771	35.1281	15.4532	1.58665	3.69372	36.1175
95	1.87	0	-3.26409	25.8773	18.9634	1.56281	-3.26989	25.8774
96	1.88	1	3.58916	35.3878	15.4676	1.55717	3.59683	35.4112
96	1.88	0	-3.26755	26.1402	18.9662	1.57239	-3.26554	26.0651
97	1.89	1	3.59285	35.5466	15.478	1.55313	3.49314	35.2447
97	1.89	0	-3.28096	26.2111	18.9579	1.60342	-3.40164	25.9621
98	1.9	1	3.57569	35.7804	15.5014	1.60035	3.49062	35.6305
98	1.9	0	-3.2953	26.5759	18.9941	1.62454	-3.30345	26.6315
100	1.92	0	-3.29654	27.1523	19.0163	1.60087	-3.34092	27.5516
100	1.92	1	3.57409	36.2048	15.5272	1.5903	3.57537	36.229
101	1.93	0	-3.30477	27.113	18.9832	1.6119	-3.35721	27.1036
101	1.93	1	3.58326	36.583	15.565	1.57038	3.59026	36.663
102	1.94	0	-3.2733	27.4179	18.9722	1.5302	-3.25185	27.6904
102	1.94	1	3.59067	36.9165	15.595	1.5566	3.5945	36.9642
103	1.95	0	-3.27672	27.924	19.0072	1.55397	-3.21393	28.2273
103	1.95	1	3.58313	36.9725	15.5984	1.57918	3.53621	36.7256
104	1.96	1	3.60072	37.6506	15.6584	1.54349	3.58282	38.017
104	1.96	0	-3.28941	27.8384	18.9689	1.58091	-3.29613	27.7527
105	1.97	1	3.59069	37.5539	15.6217	1.57546	3.57892	37.4734
105	1.97	0	-3.27755	27.8729	18.9324	1.549	-3.2665	27.8268
106	1.98	1	3.59553	37.7979	15.636	1.56219	3.59852	37.8147
106	1.98	0	-3.31084	28.2671	18.9616	1.62736	-3.30301	28.2047
107	1.99	1	3.5724	37.8262	15.6145	1.62239	3.3264	37.4953
107	1.99	0	-3.29975	28.3376	18.9402	1.58936	-3.29135	28.3112
108	2	1	3.58181	38.1	15.6309	1.58403	3.59256	38.1029
108	2	0	-3.31901	28.4432	18.9277	1.62226	-3.39959	28.4314
109	2.01	1	3.58366	38.3843	15.6667	1.57334	3.58736	38.424
109	2.01	0	-3.31901	28.4432	18.9277	1.62226	-3.39959	28.4314
110	2.02	1	3.59106	38.7431	15.7057	1.55229	3.59823	38.8135
110	2.02	0	-3.32439	29.2073	18.9842	1.59881	-3.32429	29.0259
111	2.03	1	3.6049	38.8576	15.7225	1.52429	3.61605	38.3519
111	2.03	0	-3.3179	29.2301	18.9441	1.5728	-3.30753	29.176
112	2.04	1	3.61732	39.4705	15.7853	1.51136	3.75814	39.8499
112	2.04	0	-3.32845	29.468	18.9445	1.59568	-3.47587	30.0291
113	2.05	1	3.59164	39.4336	15.7454	1.58528	3.57096	39.3711
113	2.05	0	-3.303	29.4542	18.9174	1.53661	-3.28395	29.3823
114	2.06	1	3.58523	39.5872	15.7628	1.59512	3.57257	38.8752
114	2.06	0	-3.28502	29.575	18.9093	1.51495	-3.28016	29.5626
115	2.07	1	3.5755	39.8595	15.7746	1.60905	3.69141	40.7421
115	2.07	0	-3.28474	29.6771	18.8997	1.53609	-3.23869	28.7706
116	2.08	1	3.5832	40.2621	15.8024	1.58451	3.58851	40.3304
116	2.08	0	-3.29175	30.002	18.9132	1.56446	-3.29971	30.0333
117	2.09	1	3.59258	40.6548	15.8229	1.56043	3.63524	41.4582
117	2.09	0	-3.28295	30.0981	18.8973	1.5484	-3.27865	30.0797
118	2.1	1	3.58208	40.7609	15.8187	1.58893	3.57399	40.7512
118	2.1	0	-3.29832	30.3906	18.9197	1.59247	-3.31656	30.4353
119	2.11	1	3.57169	40.8904	15.8263	1.60803	3.4639	40.4273
119	2.11	0	-3.29371	30.4775	18.923	1.57407	-3.24614	30.2155
120	2.12	1	3.55241	41.0175	15.8273	1.63936	3.54449	41.0121
120	2.12	0	-3.29976	30.8452	18.956	1.57919	-3.29931	30.893
121	2.13	1	3.5685	41.4305	15.8605	1.57752	3.60258	41.6113
121	2.13	0	-3.30816	30.7211	18.9114	1.59885	-3.29931	30.893
122	2.14	1	3.53935	41.6196	15.854	1.63738	3.50092	41.7201
122	2.14	0	-3.33698	31.1301	18.971	1.64789	-3.37183	31.1025
123	2.15	1	3.55823	41.7756	15.8665	1.56546	3.61564	40.9346
123	2.15	0	-3.33486	31.4732	19.0061	1.61287	-3.65994	32.0604
